1 2 0 0
1 3 0 0
1 4 0 0
1 5 0 0
1 6 0 0
1 7 0 0
1 8 0 0
1 9 0 0
1 10 0 0
1 11 0 0
1 12 0 0
1 13 0 0
1 14 0 0
1 15 0 0
1 16 0 0
1 17 0 0
1 18 0 0
1 19 1 0 20
1 21 1 0 19
1 22 1 0 19
1 23 1 0 19
1 24 1 0 19
1 25 1 0 19
1 26 1 0 19
1 27 1 0 19
1 28 1 0 19
3 1 29 0 0
3 1 30 0 0
3 1 31 0 0
3 1 32 0 0
3 1 33 0 0
3 1 34 0 0
3 1 35 0 0
3 1 36 0 0
1 1 1 1 19
1 37 0 0
1 38 0 0
1 39 0 0
1 40 0 0
1 41 0 0
1 42 0 0
1 43 0 0
1 44 0 0
1 45 0 0
1 46 0 0
1 47 0 0
1 48 0 0
1 49 0 0
1 50 0 0
1 51 0 0
1 52 0 0
5 20 38 16 0 29 30 31 32 33 34 35 36 21 22 23 24 25 26 27 28 8 7 6 5 4 3 2 1 8 7 6 5 4 3 2 1
5 20 36 16 0 53 54 55 56 57 58 59 60 61 62 63 64 65 66 67 68 8 7 6 5 4 3 2 1 8 7 6 5 4 3 2 1
1 69 1 1 20
1 53 1 1 29
1 53 1 0 20
8 2 29 53 1 1 69
1 54 1 1 30
1 54 1 0 20
8 2 30 54 1 1 69
1 55 1 1 31
1 55 1 0 20
8 2 31 55 1 1 69
1 56 1 1 32
1 56 1 0 20
8 2 32 56 1 1 69
1 57 1 1 33
1 57 1 0 20
8 2 33 57 1 1 69
1 58 1 1 34
1 58 1 0 20
8 2 34 58 1 1 69
1 59 1 1 35
1 59 1 0 20
8 2 35 59 1 1 69
1 60 1 1 36
1 60 1 0 20
8 2 36 60 1 1 69
1 61 1 1 21
1 61 1 0 20
8 2 21 61 1 1 69
1 62 1 1 22
1 62 1 0 20
8 2 22 62 1 1 69
1 63 1 1 23
1 63 1 0 20
8 2 23 63 1 1 69
1 64 1 1 24
1 64 1 0 20
8 2 24 64 1 1 69
1 65 1 1 25
1 65 1 0 20
8 2 25 65 1 1 69
1 66 1 1 26
1 66 1 0 20
8 2 26 66 1 1 69
1 67 1 1 27
1 67 1 0 20
8 2 27 67 1 1 69
1 68 1 1 28
1 68 1 0 20
8 2 28 68 1 1 69
0
18 k(37)
21 true(all,y8,8)
17 var(all,y8,8)
5 var(exists,x4,4)
7 var(exists,x6,6)
19 saturate
12 var(all,y3,3)
28 true(all,y1,1)
36 true(exists,x1,1)
25 true(all,y4,4)
34 true(exists,x3,3)
24 true(all,y5,5)
33 true(exists,x4,4)
6 var(exists,x5,5)
14 var(all,y5,5)
2 var(exists,x1,1)
13 var(all,y4,4)
11 var(all,y2,2)
22 true(all,y7,7)
32 true(exists,x5,5)
15 var(all,y6,6)
8 var(exists,x7,7)
4 var(exists,x3,3)
26 true(all,y3,3)
27 true(all,y2,2)
30 true(exists,x7,7)
31 true(exists,x6,6)
35 true(exists,x2,2)
23 true(all,y6,6)
10 var(all,y1,1)
9 var(exists,x8,8)
16 var(all,y7,7)
29 true(exists,x8,8)
3 var(exists,x2,2)
0
B+
0
B-
1
0
1
